Type,Alpha,Mean Loyalty,Kappa Loyalty,Complexity
OS,0.0,0.8142857142857143,-0.02708803611738131,0.01052631578947369
RDP,0.0,1.0,1.0,1.0
BU,0.0,1.0,1.0,1.0
VC,0.0,1.0,1.0,1.0
OS,0.01,0.8142857142857143,0.43896424167694204,0.032330827067669175
RDP,0.01,0.9857142857142858,0.9479940564635958,0.6311278195488723
BU,0.01,0.9714285714285714,0.8994252873563219,0.392781954887218
VC,0.01,0.9857142857142858,0.9479940564635958,0.6819548872180451
OS,0.02,0.8428571428571429,0.5252774352651048,0.04045112781954888
RDP,0.02,0.9571428571428572,0.8539638386648123,0.42496240601503754
BU,0.02,0.9571428571428572,0.8439821693907875,0.27398496240601505
VC,0.02,0.9857142857142858,0.9479940564635958,0.5451127819548873
OS,0.03,0.8571428571428571,0.5283018867924528,0.050375939849624074
RDP,0.03,0.9428571428571428,0.8113207547169812,0.30436090225563905
BU,0.03,0.9571428571428572,0.8439821693907875,0.2213533834586466
VC,0.03,0.9714285714285714,0.8994252873563219,0.4610526315789473
OS,0.04,0.8571428571428571,0.49712643678160917,0.05669172932330828
RDP,0.04,0.9428571428571428,0.8113207547169812,0.23954887218045115
BU,0.04,0.9714285714285714,0.8994252873563219,0.19187969924812032
VC,0.04,0.9714285714285714,0.8994252873563219,0.3996992481203007
OS,0.05,0.8857142857142857,0.5977011494252873,0.06436090225563908
RDP,0.05,0.9142857142857143,0.6982758620689655,0.1921804511278195
BU,0.05,0.9428571428571428,0.7988505747126436,0.16691729323308271
VC,0.05,0.9571428571428572,0.8539638386648123,0.35488721804511275
OS,0.06,0.9,0.6359583952451708,0.0700751879699248
RDP,0.06,0.9285714285714286,0.7566063977746871,0.15729323308270676
BU,0.06,0.9428571428571428,0.7988505747126436,0.15097744360902252
VC,0.06,0.9571428571428572,0.8539638386648123,0.3186466165413534
OS,0.07,0.9,0.6359583952451708,0.08120300751879701
RDP,0.07,0.9,0.6592489568845619,0.13338345864661655
BU,0.07,0.9428571428571428,0.7988505747126436,0.13924812030075184
VC,0.07,0.9571428571428572,0.8539638386648123,0.2900751879699248
OS,0.08,0.9,0.6359583952451708,0.09458646616541354
RDP,0.08,0.8428571428571429,0.46453407510431155,0.11323308270676694
BU,0.08,0.9285714285714286,0.7566063977746871,0.1281203007518797
VC,0.08,0.9571428571428572,0.8539638386648123,0.26556390977443595
OS,0.09,0.9285714285714286,0.7208931419457736,0.10150375939849626
RDP,0.09,0.8571428571428571,0.46153846153846156,0.09729323308270676
BU,0.09,0.9285714285714286,0.7566063977746871,0.12210526315789473
VC,0.09,0.9428571428571428,0.8113207547169812,0.24932330827067664
OS,0.1,0.9285714285714286,0.7208931419457736,0.10962406015037593
RDP,0.1,0.8571428571428571,0.49712643678160917,0.08751879699248119
BU,0.1,0.9,0.6592489568845619,0.11518796992481205
VC,0.1,0.9428571428571428,0.8113207547169812,0.23082706766917294
OS,0.11,0.9285714285714286,0.7208931419457736,0.11699248120300751
RDP,0.11,0.8571428571428571,0.49712643678160917,0.08030075187969926
BU,0.11,0.8857142857142857,0.5977011494252873,0.10947368421052632
VC,0.11,0.9428571428571428,0.8113207547169812,0.21458646616541355
OS,0.12,0.9428571428571428,0.7846153846153846,0.12646616541353387
RDP,0.12,0.8571428571428571,0.5283018867924528,0.0736842105263158
BU,0.12,0.8857142857142857,0.5977011494252873,0.10406015037593982
VC,0.12,0.9428571428571428,0.8113207547169812,0.20451127819548878
OS,0.13,0.9571428571428572,0.8439821693907875,0.1321804511278196
RDP,0.13,0.8571428571428571,0.5558375634517767,0.06887218045112782
BU,0.13,0.8714285714285714,0.5319465081723626,0.10045112781954886
VC,0.13,0.9428571428571428,0.8113207547169812,0.19639097744360898
OS,0.14,0.9571428571428572,0.8439821693907875,0.13714285714285715
RDP,0.14,0.8571428571428571,0.5558375634517767,0.06661654135338346
BU,0.14,0.8714285714285714,0.5319465081723626,0.09503759398496239
VC,0.14,0.9428571428571428,0.8113207547169812,0.18947368421052627
OS,0.15,0.9428571428571428,0.7988505747126436,0.14360902255639096
RDP,0.15,0.8571428571428571,0.5558375634517767,0.06406015037593986
BU,0.15,0.8714285714285714,0.5319465081723626,0.0926315789473684
VC,0.15,0.9428571428571428,0.8113207547169812,0.18315789473684213
OS,0.16,0.9428571428571428,0.7988505747126436,0.15067669172932333
RDP,0.16,0.8714285714285714,0.6115906288532675,0.06045112781954887
BU,0.16,0.8714285714285714,0.5319465081723626,0.08812030075187968
VC,0.16,0.9428571428571428,0.8113207547169812,0.17654135338345867
OS,0.17,0.9428571428571428,0.7988505747126436,0.15714285714285717
RDP,0.17,0.8714285714285714,0.6115906288532675,0.05804511278195489
BU,0.17,0.8428571428571429,0.46453407510431155,0.08210526315789471
VC,0.17,0.9428571428571428,0.8113207547169812,0.17142857142857143
OS,0.18,0.9285714285714286,0.7399702823179792,0.16676691729323312
RDP,0.18,0.8714285714285714,0.6115906288532675,0.05578947368421054
BU,0.18,0.8571428571428571,0.5283018867924528,0.07879699248120299
VC,0.18,0.9428571428571428,0.8113207547169812,0.16571428571428568
OS,0.19,0.9571428571428572,0.8539638386648123,0.17714285714285716
RDP,0.19,0.8714285714285714,0.6115906288532675,0.054285714285714305
BU,0.19,0.8571428571428571,0.5283018867924528,0.07789473684210524
VC,0.19,0.9428571428571428,0.8113207547169812,0.16135338345864655
OS,0.2,0.9571428571428572,0.8539638386648123,0.18496240601503763
RDP,0.2,0.8714285714285714,0.6115906288532675,0.052781954887218055
BU,0.2,0.8428571428571429,0.49673202614379086,0.07518796992481201
VC,0.2,0.9428571428571428,0.8113207547169812,0.1581954887218045
OS,0.21,0.9571428571428572,0.8539638386648123,0.19263157894736846
RDP,0.21,0.8714285714285714,0.6115906288532675,0.05127819548872182
BU,0.21,0.8571428571428571,0.5558375634517767,0.07218045112781953
VC,0.21,0.9428571428571428,0.8113207547169812,0.1550375939849624
OS,0.22,0.9571428571428572,0.8539638386648123,0.20721804511278194
RDP,0.22,0.8714285714285714,0.6115906288532675,0.0505263157894737
BU,0.22,0.8571428571428571,0.5558375634517767,0.06947368421052628
VC,0.22,0.9428571428571428,0.8113207547169812,0.15323308270676692
OS,0.23,0.9714285714285714,0.9056603773584906,0.21428571428571427
RDP,0.23,0.8571428571428571,0.580335731414868,0.04887218045112783
BU,0.23,0.8428571428571429,0.5252774352651048,0.06646616541353383
VC,0.23,0.9428571428571428,0.8113207547169812,0.15037593984962408
OS,0.24,0.9857142857142858,0.9513212795549374,0.22466165413533828
RDP,0.24,0.8428571428571429,0.5507584597432905,0.04691729323308272
BU,0.24,0.8428571428571429,0.5252774352651048,0.06556390977443606
VC,0.24,0.9428571428571428,0.8113207547169812,0.1478195488721805
OS,0.25,0.9857142857142858,0.9513212795549374,0.23533834586466165
RDP,0.25,0.8285714285714286,0.5227272727272727,0.046015037593984974
BU,0.25,0.8428571428571429,0.5252774352651048,0.06406015037593982
VC,0.25,0.9428571428571428,0.8113207547169812,0.1442105263157895
OS,0.26,0.9857142857142858,0.9513212795549374,0.24781954887218047
RDP,0.26,0.8,0.4708423326133909,0.043759398496240616
BU,0.26,0.8714285714285714,0.6115906288532675,0.060751879699248106
VC,0.26,0.9428571428571428,0.8113207547169812,0.14120300751879702
OS,0.27,0.9857142857142858,0.9513212795549374,0.25789473684210523
RDP,0.27,0.8,0.4708423326133909,0.04285714285714287
BU,0.27,0.8714285714285714,0.6115906288532675,0.05954887218045112
VC,0.27,0.9428571428571428,0.8113207547169812,0.13879699248120303
OS,0.28,0.9857142857142858,0.9513212795549374,0.2703759398496241
RDP,0.28,0.7714285714285715,0.4238683127572017,0.040451127819548884
BU,0.28,0.8714285714285714,0.6115906288532675,0.05804511278195489
VC,0.28,0.9428571428571428,0.8113207547169812,0.13654135338345869
OS,0.29,0.9857142857142858,0.9513212795549374,0.28225563909774437
RDP,0.29,0.7428571428571429,0.38113948919449914,0.03969924812030076
BU,0.29,0.8714285714285714,0.6115906288532675,0.05684210526315791
VC,0.29,0.9428571428571428,0.8113207547169812,0.13443609022556394
OS,0.3,0.9857142857142858,0.9513212795549374,0.29142857142857137
RDP,0.3,0.6714285714285714,0.2594296228150874,0.038045112781954896
BU,0.3,0.8714285714285714,0.6115906288532675,0.056541353383458656
VC,0.3,0.9428571428571428,0.8113207547169812,0.13263157894736843
OS,0.31,0.9857142857142858,0.9513212795549374,0.2986466165413534
RDP,0.31,0.6714285714285714,0.28949691085613416,0.037293233082706774
BU,0.31,0.8714285714285714,0.6115906288532675,0.05563909774436091
VC,0.31,0.9428571428571428,0.8113207547169812,0.13082706766917296
OS,0.32,0.9857142857142858,0.9513212795549374,0.30962406015037597
RDP,0.32,0.6285714285714286,0.21280276816609,0.035639097744360915
BU,0.32,0.8714285714285714,0.6115906288532675,0.05533834586466166
VC,0.32,0.9428571428571428,0.8113207547169812,0.12842105263157896
OS,0.33,0.9857142857142858,0.9513212795549374,0.3181954887218046
RDP,0.33,0.6285714285714286,0.21280276816609,0.034436090225563924
BU,0.33,0.8571428571428571,0.5558375634517767,0.054135338345864675
VC,0.33,0.9428571428571428,0.8113207547169812,0.12691729323308273
OS,0.34,0.9857142857142858,0.9513212795549374,0.3276691729323309
RDP,0.34,0.6142857142857143,0.1984732824427481,0.03278195488721805
BU,0.34,0.8571428571428571,0.5558375634517767,0.054135338345864675
VC,0.34,0.9428571428571428,0.8113207547169812,0.12556390977443607
OS,0.35000000000000003,0.9714285714285714,0.9056603773584906,0.34526315789473677
RDP,0.35000000000000003,0.5857142857142857,0.13910093299406268,0.031729323308270684
BU,0.35000000000000003,0.8571428571428571,0.5558375634517767,0.054135338345864675
VC,0.35000000000000003,0.9428571428571428,0.8113207547169812,0.12210526315789473
OS,0.36,0.9714285714285714,0.9056603773584906,0.35518796992481205
RDP,0.36,0.5,0.03619197482297409,0.02947368421052632
BU,0.36,0.8571428571428571,0.5558375634517767,0.054135338345864675
VC,0.36,0.9285714285714286,0.7566063977746871,0.12030075187969924
OS,0.37,0.9714285714285714,0.9056603773584906,0.3682706766917294
RDP,0.37,0.35714285714285715,-0.15553925165077054,0.026315789473684216
BU,0.37,0.8571428571428571,0.5558375634517767,0.054135338345864675
VC,0.37,0.9285714285714286,0.7566063977746871,0.1180451127819549
OS,0.38,0.9714285714285714,0.9056603773584906,0.37879699248120297
RDP,0.38,0.2714285714285714,-0.2268041237113403,0.024511278195488723
BU,0.38,0.8571428571428571,0.5558375634517767,0.054135338345864675
VC,0.38,0.9285714285714286,0.7566063977746871,0.1162406015037594
OS,0.39,0.9714285714285714,0.9056603773584906,0.3914285714285714
RDP,0.39,0.2714285714285714,-0.2268041237113403,0.023308270676691733
BU,0.39,0.8571428571428571,0.5558375634517767,0.05383458646616543
VC,0.39,0.9285714285714286,0.7566063977746871,0.11518796992481202
OS,0.4,0.9714285714285714,0.9056603773584906,0.40406015037593984
RDP,0.4,0.2571428571428571,-0.31313131313131337,0.021954887218045116
BU,0.4,0.8571428571428571,0.5558375634517767,0.05353383458646618
VC,0.4,0.9285714285714286,0.7566063977746871,0.11383458646616541
OS,0.41000000000000003,0.9714285714285714,0.9056603773584906,0.41894736842105257
RDP,0.41000000000000003,0.24285714285714285,-0.3609684519442409,0.020751879699248126
BU,0.41000000000000003,0.8571428571428571,0.5558375634517767,0.05353383458646618
VC,0.41000000000000003,0.9285714285714286,0.7566063977746871,0.1124812030075188
OS,0.42,0.9714285714285714,0.9056603773584906,0.4288721804511277
RDP,0.42,0.2714285714285714,-0.3553530751708427,0.019699248120300755
BU,0.42,0.8571428571428571,0.5558375634517767,0.05323308270676693
VC,0.42,0.9285714285714286,0.7566063977746871,0.10977443609022558
OS,0.43,0.9714285714285714,0.9056603773584906,0.4436090225563909
RDP,0.43,0.32857142857142857,-0.34285714285714275,0.01654135338345865
BU,0.43,0.8571428571428571,0.5558375634517767,0.052932330827067685
VC,0.43,0.9285714285714286,0.7566063977746871,0.10766917293233084
OS,0.44,0.9714285714285714,0.9056603773584906,0.4596992481203007
RDP,0.44,0.34285714285714286,-0.33943427620632294,0.016090225563909776
BU,0.44,0.8571428571428571,0.5558375634517767,0.052932330827067685
VC,0.44,0.9285714285714286,0.7566063977746871,0.10631578947368422
OS,0.45,0.9714285714285714,0.9056603773584906,0.4733834586466165
RDP,0.45,0.37142857142857144,-0.3321799307958475,0.015338345864661658
BU,0.45,0.8571428571428571,0.5558375634517767,0.05263157894736843
VC,0.45,0.9285714285714286,0.7566063977746871,0.10406015037593987
OS,0.46,0.9714285714285714,0.9056603773584906,0.48556390977443614
RDP,0.46,0.4,-0.32432432432432434,0.014436090225563913
BU,0.46,0.8571428571428571,0.5558375634517767,0.05263157894736843
VC,0.46,0.9285714285714286,0.7566063977746871,0.10375939849624062
OS,0.47000000000000003,0.9714285714285714,0.9056603773584906,0.49624060150375937
RDP,0.47000000000000003,0.4142857142857143,-0.3201471941122356,0.014285714285714289
BU,0.47000000000000003,0.8571428571428571,0.5558375634517767,0.05263157894736843
VC,0.47000000000000003,0.9285714285714286,0.7566063977746871,0.10180451127819551
OS,0.48,0.9714285714285714,0.9056603773584906,0.5081203007518797
RDP,0.48,0.42857142857142855,-0.3157894736842106,0.013684210526315794
BU,0.48,0.8571428571428571,0.5558375634517767,0.05172932330827069
VC,0.48,0.9285714285714286,0.7399702823179792,0.10030075187969925
OS,0.49,0.9714285714285714,0.9056603773584906,0.5201503759398496
RDP,0.49,0.44285714285714284,-0.3112391930835736,0.013533834586466169
BU,0.49,0.8571428571428571,0.5558375634517767,0.05172932330827069
VC,0.49,0.9285714285714286,0.7399702823179792,0.0993984962406015
OS,0.5,0.9714285714285714,0.9056603773584906,0.529624060150376
RDP,0.5,0.4714285714285714,-0.24399615754082626,0.012330827067669177
BU,0.5,0.8571428571428571,0.5558375634517767,0.05172932330827069
VC,0.5,0.9285714285714286,0.7399702823179792,0.09879699248120301
OS,0.51,0.9857142857142858,0.9513212795549374,0.5440601503759399
RDP,0.51,0.4857142857142857,-0.1842105263157896,0.011879699248120306
BU,0.51,0.8428571428571429,0.5252774352651048,0.051428571428571435
VC,0.51,0.9285714285714286,0.7399702823179792,0.09639097744360903
OS,0.52,1.0,1.0,0.5556390977443608
RDP,0.52,0.4857142857142857,-0.1842105263157896,0.011879699248120306
BU,0.52,0.8428571428571429,0.5252774352651048,0.050827067669172936
VC,0.52,0.9285714285714286,0.7399702823179792,0.09458646616541352
OS,0.53,1.0,1.0,0.5685714285714285
RDP,0.53,0.4857142857142857,-0.1842105263157896,0.011578947368421057
BU,0.53,0.8428571428571429,0.5252774352651048,0.050827067669172936
VC,0.53,0.9285714285714286,0.7399702823179792,0.09383458646616541
OS,0.54,1.0,1.0,0.5824060150375939
RDP,0.54,0.5142857142857142,-0.1689587426326129,0.01097744360902256
BU,0.54,0.8428571428571429,0.5252774352651048,0.050827067669172936
VC,0.54,0.9142857142857143,0.6982758620689655,0.09248120300751879
OS,0.55,1.0,1.0,0.5965413533834585
RDP,0.55,0.5285714285714286,-0.16080402010050232,0.010827067669172935
BU,0.55,0.8428571428571429,0.5252774352651048,0.050827067669172936
VC,0.55,0.9142857142857143,0.6982758620689655,0.09142857142857141
OS,0.56,1.0,1.0,0.609172932330827
RDP,0.56,0.5428571428571428,-0.15226337448559657,0.010676691729323312
BU,0.56,0.8428571428571429,0.5252774352651048,0.050827067669172936
VC,0.56,0.9142857142857143,0.6982758620689655,0.09022556390977443
OS,0.5700000000000001,1.0,1.0,0.6224060150375942
RDP,0.5700000000000001,0.5428571428571428,-0.15226337448559657,0.010676691729323312
BU,0.5700000000000001,0.8428571428571429,0.5252774352651048,0.05052631578947369
VC,0.5700000000000001,0.9142857142857143,0.6982758620689655,0.08977443609022556
OS,0.58,1.0,1.0,0.6386466165413535
RDP,0.58,0.5428571428571428,-0.15226337448559657,0.010676691729323312
BU,0.58,0.8428571428571429,0.5252774352651048,0.05052631578947369
VC,0.58,0.9,0.6359583952451708,0.08887218045112782
OS,0.59,1.0,1.0,0.6524812030075188
RDP,0.59,0.5428571428571428,-0.15226337448559657,0.010676691729323312
BU,0.59,0.8428571428571429,0.5252774352651048,0.0499248120300752
VC,0.59,0.9,0.6359583952451708,0.08812030075187971
OS,0.6,1.0,1.0,0.6636090225563909
RDP,0.6,0.5428571428571428,-0.15226337448559657,0.010676691729323312
BU,0.6,0.8428571428571429,0.5252774352651048,0.0499248120300752
VC,0.6,0.9,0.6359583952451708,0.08766917293233083
OS,0.61,1.0,1.0,0.6780451127819548
RDP,0.61,0.5428571428571428,-0.15226337448559657,0.010676691729323312
BU,0.61,0.8428571428571429,0.5252774352651048,0.04962406015037595
VC,0.61,0.9,0.6359583952451708,0.08676691729323308
OS,0.62,1.0,1.0,0.6873684210526315
RDP,0.62,0.5428571428571428,-0.15226337448559657,0.010676691729323312
BU,0.62,0.8428571428571429,0.5252774352651048,0.04962406015037595
VC,0.62,0.8857142857142857,0.5977011494252873,0.08586466165413534
OS,0.63,1.0,1.0,0.6968421052631579
RDP,0.63,0.5428571428571428,-0.15226337448559657,0.010676691729323312
BU,0.63,0.8428571428571429,0.5252774352651048,0.049323308270676706
VC,0.63,0.8857142857142857,0.5977011494252873,0.08421052631578949
OS,0.64,1.0,1.0,0.7106766917293234
RDP,0.64,0.5428571428571428,-0.15226337448559657,0.010676691729323312
BU,0.64,0.8428571428571429,0.5252774352651048,0.049323308270676706
VC,0.64,0.8857142857142857,0.5977011494252873,0.08345864661654136
OS,0.65,1.0,1.0,0.7222556390977444
RDP,0.65,0.5285714285714286,-0.21707060063224448,0.01052631578947369
BU,0.65,0.8428571428571429,0.5252774352651048,0.049323308270676706
VC,0.65,0.8857142857142857,0.5977011494252873,0.08240601503759397
OS,0.66,1.0,1.0,0.7321804511278195
RDP,0.66,0.5285714285714286,-0.21707060063224448,0.01052631578947369
BU,0.66,0.8428571428571429,0.5252774352651048,0.049323308270676706
VC,0.66,0.8857142857142857,0.5977011494252873,0.08210526315789474
OS,0.67,1.0,1.0,0.7451127819548872
RDP,0.67,0.5285714285714286,-0.21707060063224448,0.01052631578947369
BU,0.67,0.8428571428571429,0.5252774352651048,0.049022556390977454
VC,0.67,0.8857142857142857,0.5977011494252873,0.08135338345864662
OS,0.68,1.0,1.0,0.7565413533834585
RDP,0.68,0.5285714285714286,-0.21707060063224448,0.01052631578947369
BU,0.68,0.8428571428571429,0.5252774352651048,0.04872180451127821
VC,0.68,0.8857142857142857,0.5977011494252873,0.08075187969924813
OS,0.6900000000000001,1.0,1.0,0.7666165413533834
RDP,0.6900000000000001,0.5285714285714286,-0.21707060063224448,0.01052631578947369
BU,0.6900000000000001,0.8428571428571429,0.5252774352651048,0.048421052631578955
VC,0.6900000000000001,0.8857142857142857,0.5977011494252873,0.08030075187969925
OS,0.7000000000000001,1.0,1.0,0.7750375939849624
RDP,0.7000000000000001,0.5285714285714286,-0.21707060063224448,0.01052631578947369
BU,0.7000000000000001,0.8428571428571429,0.5252774352651048,0.04812030075187971
VC,0.7000000000000001,0.8857142857142857,0.5977011494252873,0.0793984962406015
OS,0.71,1.0,1.0,0.7837593984962408
RDP,0.71,0.5285714285714286,-0.21707060063224448,0.01052631578947369
BU,0.71,0.8428571428571429,0.5252774352651048,0.04812030075187971
VC,0.71,0.8857142857142857,0.5977011494252873,0.078796992481203
OS,0.72,1.0,1.0,0.7914285714285714
RDP,0.72,0.5285714285714286,-0.21707060063224448,0.01052631578947369
BU,0.72,0.8428571428571429,0.5252774352651048,0.04812030075187971
VC,0.72,0.8857142857142857,0.5977011494252873,0.07804511278195489
OS,0.73,1.0,1.0,0.8006015037593985
RDP,0.73,0.5285714285714286,-0.21707060063224448,0.01052631578947369
BU,0.73,0.8428571428571429,0.5252774352651048,0.04781954887218046
VC,0.73,0.8857142857142857,0.5977011494252873,0.07759398496240602
OS,0.74,1.0,1.0,0.8118796992481202
RDP,0.74,0.5285714285714286,-0.21707060063224448,0.01052631578947369
BU,0.74,0.8285714285714286,0.49640287769784175,0.04751879699248121
VC,0.74,0.8857142857142857,0.5977011494252873,0.07669172932330827
OS,0.75,1.0,1.0,0.8198496240601503
RDP,0.75,0.5285714285714286,-0.21707060063224448,0.01052631578947369
BU,0.75,0.8285714285714286,0.49640287769784175,0.04751879699248121
VC,0.75,0.8857142857142857,0.5977011494252873,0.07593984962406015
OS,0.76,1.0,1.0,0.8296240601503758
RDP,0.76,0.5285714285714286,-0.21707060063224448,0.01052631578947369
BU,0.76,0.8142857142857143,0.469078179696616,0.047218045112781964
VC,0.76,0.8857142857142857,0.5977011494252873,0.0756390977443609
OS,0.77,1.0,1.0,0.836390977443609
RDP,0.77,0.5285714285714286,-0.21707060063224448,0.01052631578947369
BU,0.77,0.8142857142857143,0.469078179696616,0.04691729323308271
VC,0.77,0.8857142857142857,0.5977011494252873,0.07428571428571427
OS,0.78,1.0,1.0,0.8452631578947368
RDP,0.78,0.5285714285714286,-0.21707060063224448,0.01052631578947369
BU,0.78,0.8,0.44318181818181823,0.04601503759398497
VC,0.78,0.8857142857142857,0.5977011494252873,0.07368421052631578
OS,0.79,1.0,1.0,0.8542857142857142
RDP,0.79,0.5285714285714286,-0.21707060063224448,0.01052631578947369
BU,0.79,0.8,0.44318181818181823,0.04571428571428572
VC,0.79,0.8857142857142857,0.5977011494252873,0.07353383458646615
OS,0.8,1.0,1.0,0.8624060150375941
RDP,0.8,0.5285714285714286,-0.21707060063224448,0.01052631578947369
BU,0.8,0.7857142857142857,0.41860465116279066,0.044812030075187984
VC,0.8,0.8857142857142857,0.5977011494252873,0.07278195488721803
OS,0.81,1.0,1.0,0.8702255639097743
RDP,0.81,0.5285714285714286,-0.21707060063224448,0.01052631578947369
BU,0.81,0.7857142857142857,0.41860465116279066,0.044812030075187984
VC,0.81,0.8857142857142857,0.5977011494252873,0.07263157894736841
OS,0.8200000000000001,1.0,1.0,0.877593984962406
RDP,0.8200000000000001,0.5285714285714286,-0.21707060063224448,0.01052631578947369
BU,0.8200000000000001,0.7714285714285715,0.3952483801295896,0.044210526315789485
VC,0.8200000000000001,0.8857142857142857,0.5977011494252873,0.0718796992481203
OS,0.8300000000000001,1.0,1.0,0.8878195488721803
RDP,0.8300000000000001,0.5285714285714286,-0.21707060063224448,0.01052631578947369
BU,0.8300000000000001,0.7714285714285715,0.3952483801295896,0.04390977443609023
VC,0.8300000000000001,0.8857142857142857,0.5977011494252873,0.0706766917293233
OS,0.84,1.0,1.0,0.8945864661654135
RDP,0.84,0.5285714285714286,-0.21707060063224448,0.01052631578947369
BU,0.84,0.7714285714285715,0.3952483801295896,0.04270676691729324
VC,0.84,0.8857142857142857,0.5977011494252873,0.06977443609022556
OS,0.85,1.0,1.0,0.9003007518796992
RDP,0.85,0.5285714285714286,-0.21707060063224448,0.01052631578947369
BU,0.85,0.7428571428571429,0.35185185185185186,0.04180451127819549
VC,0.85,0.8857142857142857,0.5977011494252873,0.06962406015037594
OS,0.86,1.0,1.0,0.9067669172932331
RDP,0.86,0.5285714285714286,-0.21707060063224448,0.01052631578947369
BU,0.86,0.7428571428571429,0.35185185185185186,0.041203007518797
VC,0.86,0.8857142857142857,0.5977011494252873,0.06932330827067668
OS,0.87,1.0,1.0,0.913233082706767
RDP,0.87,0.5285714285714286,-0.21707060063224448,0.01052631578947369
BU,0.87,0.7428571428571429,0.35185185185185186,0.04090225563909776
VC,0.87,0.8857142857142857,0.5977011494252873,0.06932330827067668
OS,0.88,1.0,1.0,0.9218045112781953
RDP,0.88,0.5285714285714286,-0.21707060063224448,0.01052631578947369
BU,0.88,0.7285714285714285,0.3316582914572864,0.04000000000000001
VC,0.88,0.8857142857142857,0.5977011494252873,0.06872180451127817
OS,0.89,1.0,1.0,0.9308270676691728
RDP,0.89,0.5285714285714286,-0.21707060063224448,0.01052631578947369
BU,0.89,0.7285714285714285,0.3316582914572864,0.03969924812030076
VC,0.89,0.8857142857142857,0.5977011494252873,0.06766917293233082
OS,0.9,1.0,1.0,0.9380451127819549
RDP,0.9,0.5285714285714286,-0.21707060063224448,0.01052631578947369
BU,0.9,0.7285714285714285,0.3316582914572864,0.03879699248120302
VC,0.9,0.8857142857142857,0.5977011494252873,0.06751879699248119
OS,0.91,1.0,1.0,0.943609022556391
RDP,0.91,0.5285714285714286,-0.21707060063224448,0.01052631578947369
BU,0.91,0.7285714285714285,0.3316582914572864,0.03879699248120302
VC,0.91,0.8857142857142857,0.5977011494252873,0.06736842105263158
OS,0.92,1.0,1.0,0.9523308270676694
RDP,0.92,0.5285714285714286,-0.21707060063224448,0.01052631578947369
BU,0.92,0.7285714285714285,0.3316582914572864,0.037894736842105266
VC,0.92,0.8857142857142857,0.5977011494252873,0.06706766917293232
OS,0.93,1.0,1.0,0.9583458646616538
RDP,0.93,0.5285714285714286,-0.21707060063224448,0.01052631578947369
BU,0.93,0.7428571428571429,0.35185185185185186,0.036691729323308275
VC,0.93,0.8857142857142857,0.5977011494252873,0.06586466165413533
OS,0.9400000000000001,1.0,1.0,0.9642105263157893
RDP,0.9400000000000001,0.5285714285714286,-0.21707060063224448,0.01052631578947369
BU,0.9400000000000001,0.7142857142857143,0.3123772102161101,0.035488721804511285
VC,0.9400000000000001,0.8857142857142857,0.5977011494252873,0.06571428571428573
OS,0.9500000000000001,1.0,1.0,0.9700751879699246
RDP,0.9500000000000001,0.5285714285714286,-0.21707060063224448,0.01052631578947369
BU,0.9500000000000001,0.7142857142857143,0.3123772102161101,0.03518796992481204
VC,0.9500000000000001,0.8857142857142857,0.5977011494252873,0.06556390977443609
OS,0.96,1.0,1.0,0.9747368421052631
RDP,0.96,0.5285714285714286,-0.21707060063224448,0.01052631578947369
BU,0.96,0.7142857142857143,0.3123772102161101,0.03518796992481204
VC,0.96,0.8857142857142857,0.5977011494252873,0.06541353383458647
OS,0.97,1.0,1.0,0.9828571428571428
RDP,0.97,0.5285714285714286,-0.21707060063224448,0.01052631578947369
BU,0.97,0.7,0.2939481268011527,0.033684210526315796
VC,0.97,0.8857142857142857,0.5977011494252873,0.06511278195488722
OS,0.98,1.0,1.0,0.9884210526315788
RDP,0.98,0.5285714285714286,-0.21707060063224448,0.01052631578947369
BU,0.98,0.7,0.2939481268011527,0.033684210526315796
VC,0.98,0.8857142857142857,0.5977011494252873,0.06466165413533835
OS,0.99,1.0,1.0,0.9954887218045112
RDP,0.99,0.5285714285714286,-0.21707060063224448,0.01052631578947369
BU,0.99,0.7,0.2939481268011527,0.03338345864661654
VC,0.99,0.8857142857142857,0.5977011494252873,0.0643609022556391
