Type,Alpha,Percentage Agreement,Kappa Loyalty,Complexity,Num Segments
OS,0.0,100,1.0,0.007142857142857128,1.0
RDP,0.0,100,1.0,0.9999278499278498,139.989898989899
BU_1,0.0,100,1.0,1.0071428571428562,141.0
BU_2,0.0,100,1.0,1.0,140.0
VW,0.0,100,1.0,1.0,140.0
OS,0.01,100,1.0,0.02503607503607501,3.505050505050505
RDP,0.01,100,1.0,0.22085137085137074,30.91919191919192
BU_1,0.01,100,1.0,0.11111111111111101,15.555555555555555
BU_2,0.01,100,1.0,0.21132756132756123,29.585858585858585
VW,0.01,100,1.0,0.3855699855699856,53.97979797979798
OS,0.02,100,1.0,0.05064935064935056,7.090909090909091
RDP,0.02,100,1.0,0.13636363636363635,19.09090909090909
BU_1,0.02,100,1.0,0.08549783549783536,11.969696969696969
BU_2,0.02,100,1.0,0.16060606060606059,22.484848484848484
VW,0.02,100,1.0,0.26839826839826836,37.57575757575758
OS,0.03,100,1.0,0.059956709956709854,8.393939393939394
RDP,0.03,100,1.0,0.10461760461760457,14.646464646464647
BU_1,0.03,100,1.0,0.07438672438672428,10.414141414141413
BU_2,0.03,100,1.0,0.13896103896103898,19.454545454545453
VW,0.03,100,1.0,0.21976911976911961,30.767676767676768
OS,0.04,100,1.0,0.06551226551226542,9.171717171717171
RDP,0.04,100,1.0,0.08881673881673867,12.434343434343434
BU_1,0.04,100,1.0,0.0702020202020201,9.828282828282829
BU_2,0.04,100,1.0,0.13080808080808085,18.31313131313131
VW,0.04,100,1.0,0.1907647907647907,26.707070707070706
OS,0.05,100,1.0,0.07164502164502155,10.030303030303031
RDP,0.05,100,1.0,0.07539682539682527,10.555555555555555
BU_1,0.05,100,1.0,0.0655844155844155,9.181818181818182
BU_2,0.05,100,1.0,0.1215728715728716,17.02020202020202
VW,0.05,100,1.0,0.17020202020202024,23.828282828282827
OS,0.06,100,1.0,0.07554112554112544,10.575757575757576
RDP,0.06,100,1.0,0.06544011544011535,9.16161616161616
BU_1,0.06,100,1.0,0.06212121212121203,8.696969696969697
BU_2,0.06,100,1.0,0.1147907647907648,16.07070707070707
VW,0.06,100,1.0,0.15541125541125542,21.757575757575758
OS,0.07,100,1.0,0.07965367965367953,11.151515151515152
RDP,0.07,100,1.0,0.05966810966810959,8.353535353535353
BU_1,0.07,100,1.0,0.05952380952380942,8.333333333333334
BU_2,0.07,100,1.0,0.10974025974025972,15.363636363636363
VW,0.07,100,1.0,0.14415584415584412,20.181818181818183
OS,0.08,100,1.0,0.08398268398268388,11.757575757575758
RDP,0.08,100,1.0,0.05526695526695519,7.737373737373737
BU_1,0.08,100,1.0,0.05642135642135632,7.898989898989899
BU_2,0.08,100,1.0,0.10353535353535348,14.494949494949495
VW,0.08,100,1.0,0.13564213564213562,18.98989898989899
OS,0.09,100,1.0,0.08845598845598837,12.383838383838384
RDP,0.09,100,1.0,0.05187590187590179,7.262626262626263
BU_1,0.09,100,1.0,0.05367965367965357,7.515151515151516
BU_2,0.09,100,1.0,0.09834054834054828,13.767676767676768
VW,0.09,100,1.0,0.12720057720057718,17.80808080808081
OS,0.1,100,1.0,0.09271284271284262,12.97979797979798
RDP,0.1,100,1.0,0.04870129870129862,6.818181818181818
BU_1,0.1,100,1.0,0.05194805194805185,7.2727272727272725
BU_2,0.1,100,1.0,0.09494949494949488,13.292929292929292
VW,0.1,100,1.0,0.12215007215007213,17.1010101010101
OS,0.11,100,1.0,0.096103896103896,13.454545454545455
RDP,0.11,100,1.0,0.04646464646464638,6.505050505050505
BU_1,0.11,100,1.0,0.049639249639249546,6.94949494949495
BU_2,0.11,100,1.0,0.09033189033189025,12.646464646464647
VW,0.11,100,1.0,0.11695526695526694,16.373737373737374
OS,0.12,100,1.0,0.1005050505050504,14.070707070707071
RDP,0.12,98,0.0,0.04242424242424236,5.9393939393939394
BU_1,0.12,100,1.0,0.047546897546897456,6.656565656565657
BU_2,0.12,100,1.0,0.08621933621933613,12.070707070707071
VW,0.12,100,1.0,0.11204906204906198,15.686868686868687
OS,0.13,100,1.0,0.10360750360750352,14.505050505050505
RDP,0.13,100,1.0,0.040548340548340486,5.6767676767676765
BU_1,0.13,100,1.0,0.04516594516594508,6.3232323232323235
BU_2,0.13,100,1.0,0.08145743145743134,11.404040404040405
VW,0.13,100,1.0,0.10815295815295807,15.141414141414142
OS,0.14,100,1.0,0.10642135642135632,14.8989898989899
RDP,0.14,100,1.0,0.03903318903318897,5.4646464646464645
BU_1,0.14,100,1.0,0.043290043290043226,6.0606060606060606
BU_2,0.14,100,1.0,0.07770562770562758,10.878787878787879
VW,0.14,100,1.0,0.10468975468975458,14.656565656565656
OS,0.15,100,1.0,0.11103896103896098,15.545454545454545
RDP,0.15,100,1.0,0.0376623376623376,5.2727272727272725
BU_1,0.15,100,1.0,0.0415584415584415,5.818181818181818
BU_2,0.15,100,1.0,0.07424242424242414,10.393939393939394
VW,0.15,100,1.0,0.101082251082251,14.151515151515152
OS,0.16,100,1.0,0.11399711399711394,15.95959595959596
RDP,0.16,100,1.0,0.035930735930735876,5.03030303030303
BU_1,0.16,100,1.0,0.03917748917748912,5.484848484848484
BU_2,0.16,100,1.0,0.06962481962481952,9.747474747474747
VW,0.16,100,1.0,0.09891774891774881,13.848484848484848
OS,0.17,100,1.0,0.11717171717171714,16.404040404040405
RDP,0.17,100,1.0,0.034848484848484795,4.878787878787879
BU_1,0.17,100,1.0,0.03730158730158725,5.222222222222222
BU_2,0.17,100,1.0,0.06587301587301578,9.222222222222221
VW,0.17,100,1.0,0.09624819624819615,13.474747474747474
OS,0.18,100,1.0,0.1204184704184704,16.858585858585858
RDP,0.18,100,1.0,0.034199134199134146,4.787878787878788
BU_1,0.18,100,1.0,0.03600288600288596,5.040404040404041
BU_2,0.18,100,1.0,0.06327561327561318,8.858585858585858
VW,0.18,100,1.0,0.09307359307359296,13.030303030303031
OS,0.19,100,1.0,0.12395382395382398,17.353535353535353
RDP,0.19,100,1.0,0.03326118326118321,4.656565656565657
BU_1,0.19,100,1.0,0.0351370851370851,4.91919191919192
BU_2,0.19,100,1.0,0.06154401154401146,8.616161616161616
VW,0.19,100,1.0,0.09112554112554101,12.757575757575758
OS,0.2,100,1.0,0.12792207792207794,17.90909090909091
RDP,0.2,100,1.0,0.0322510822510822,4.515151515151516
BU_1,0.2,100,1.0,0.03448773448773445,4.828282828282828
BU_2,0.2,100,1.0,0.06024531024531016,8.434343434343434
VW,0.2,100,1.0,0.08982683982683971,12.575757575757576
OS,0.21,100,1.0,0.13174603174603172,18.444444444444443
RDP,0.21,100,1.0,0.03102453102453097,4.343434343434343
BU_1,0.21,100,1.0,0.03369408369408365,4.717171717171717
BU_2,0.21,100,1.0,0.058658008658008555,8.212121212121213
VW,0.21,100,1.0,0.08816738816738805,12.343434343434344
OS,0.22,100,1.0,0.1353535353535353,18.949494949494948
RDP,0.22,100,1.0,0.030014430014429962,4.202020202020202
BU_1,0.22,100,1.0,0.03275613275613271,4.585858585858586
BU_2,0.22,100,1.0,0.05685425685425677,7.959595959595959
VW,0.22,100,1.0,0.0867243867243866,12.141414141414142
OS,0.23,100,1.0,0.13852813852813853,19.393939393939394
RDP,0.23,100,1.0,0.029076479076479027,4.070707070707071
BU_1,0.23,100,1.0,0.03217893217893213,4.505050505050505
BU_2,0.23,100,1.0,0.05569985569985561,7.797979797979798
VW,0.23,100,1.0,0.08549783549783538,11.969696969696969
OS,0.24,100,1.0,0.14199134199134195,19.87878787878788
RDP,0.24,100,1.0,0.02763347763347759,3.8686868686868685
BU_1,0.24,100,1.0,0.0317460317460317,4.444444444444445
BU_2,0.24,100,1.0,0.054834054834054735,7.6767676767676765
VW,0.24,100,1.0,0.08427128427128415,11.797979797979798
OS,0.25,100,1.0,0.14545454545454545,20.363636363636363
RDP,0.25,100,1.0,0.026767676767676725,3.7474747474747474
BU_1,0.25,100,1.0,0.031240981240981198,4.373737373737374
BU_2,0.25,100,1.0,0.053823953823953725,7.5353535353535355
VW,0.25,100,1.0,0.08290043290043278,11.606060606060606
OS,0.26,100,1.0,0.15000000000000005,21.0
RDP,0.26,100,1.0,0.025324675324675285,3.5454545454545454
BU_1,0.26,100,1.0,0.031024531024530982,4.343434343434343
BU_2,0.26,100,1.0,0.05339105339105329,7.474747474747475
VW,0.26,100,1.0,0.08174603174603162,11.444444444444445
OS,0.27,100,1.0,0.15404040404040406,21.565656565656564
RDP,0.27,100,1.0,0.024747474747474706,3.4646464646464645
BU_1,0.27,100,1.0,0.030447330447330404,4.262626262626263
BU_2,0.27,100,1.0,0.052236652236652144,7.313131313131313
VW,0.27,100,1.0,0.08116883116883106,11.363636363636363
OS,0.28,100,1.0,0.1567099567099567,21.939393939393938
RDP,0.28,100,1.0,0.023953823953823915,3.3535353535353534
BU_1,0.28,100,1.0,0.03015873015873011,4.222222222222222
BU_2,0.28,100,1.0,0.051659451659451565,7.232323232323233
VW,0.28,100,1.0,0.08030303030303018,11.242424242424242
OS,0.29,100,1.0,0.15995670995670996,22.393939393939394
RDP,0.29,100,1.0,0.02258297258297254,3.1616161616161618
BU_1,0.29,100,1.0,0.029509379509379464,4.1313131313131315
BU_2,0.29,100,1.0,0.05036075036075027,7.05050505050505
VW,0.29,100,1.0,0.07987012987012974,11.181818181818182
OS,0.3,100,1.0,0.1626984126984127,22.77777777777778
RDP,0.3,100,1.0,0.02200577200577197,3.080808080808081
BU_1,0.3,100,1.0,0.029148629148629097,4.08080808080808
BU_2,0.3,100,1.0,0.04963924963924955,6.94949494949495
VW,0.3,100,1.0,0.07929292929292918,11.1010101010101
OS,0.31,100,1.0,0.16623376623376626,23.272727272727273
RDP,0.31,100,1.0,0.021356421356421317,2.98989898989899
BU_1,0.31,100,1.0,0.028715728715728667,4.02020202020202
BU_2,0.31,100,1.0,0.048773448773448684,6.828282828282828
VW,0.31,100,1.0,0.07864357864357853,11.01010101010101
OS,0.32,100,1.0,0.17135642135642132,23.98989898989899
RDP,0.32,100,1.0,0.020995670995670956,2.9393939393939394
BU_1,0.32,100,1.0,0.028066378066378017,3.9292929292929295
BU_2,0.32,100,1.0,0.047474747474747385,6.646464646464646
VW,0.32,100,1.0,0.07784992784992774,10.8989898989899
OS,0.33,100,1.0,0.1761183261183261,24.656565656565657
RDP,0.33,100,1.0,0.02041847041847038,2.8585858585858586
BU_1,0.33,100,1.0,0.027417027417027368,3.8383838383838382
BU_2,0.33,100,1.0,0.04617604617604609,6.4646464646464645
VW,0.33,100,1.0,0.07727272727272717,10.818181818181818
OS,0.34,100,1.0,0.17929292929292923,25.1010101010101
RDP,0.34,100,1.0,0.020129870129870095,2.8181818181818183
BU_1,0.34,100,1.0,0.026695526695526644,3.7373737373737375
BU_2,0.34,100,1.0,0.04473304473304465,6.262626262626263
VW,0.34,100,1.0,0.07662337662337651,10.727272727272727
OS,0.35000000000000003,100,1.0,0.1818903318903318,25.464646464646464
RDP,0.35000000000000003,100,1.0,0.01955266955266952,2.7373737373737375
BU_1,0.35000000000000003,100,1.0,0.025829725829725782,3.6161616161616164
BU_2,0.35000000000000003,100,1.0,0.04300144300144293,6.02020202020202
VW,0.35000000000000003,100,1.0,0.07590187590187579,10.626262626262626
OS,0.36,100,1.0,0.18398268398268397,25.757575757575758
RDP,0.36,100,1.0,0.019191919191919156,2.686868686868687
BU_1,0.36,100,1.0,0.025252525252525203,3.5353535353535355
BU_2,0.36,100,1.0,0.04184704184704178,5.858585858585859
VW,0.36,100,1.0,0.07568542568542556,10.595959595959595
OS,0.37,100,1.0,0.18694083694083694,26.171717171717173
RDP,0.37,100,1.0,0.01897546897546894,2.6565656565656566
BU_1,0.37,100,1.0,0.024963924963924914,3.494949494949495
BU_2,0.37,100,1.0,0.041269841269841206,5.777777777777778
VW,0.37,100,1.0,0.075108225108225,10.515151515151516
OS,0.38,100,1.0,0.19098124098124103,26.737373737373737
RDP,0.38,100,1.0,0.018614718614718584,2.606060606060606
BU_1,0.38,100,1.0,0.024386724386724342,3.414141414141414
BU_2,0.38,100,1.0,0.040115440115440056,5.616161616161616
VW,0.38,100,1.0,0.07445887445887435,10.424242424242424
OS,0.39,100,1.0,0.19494949494949493,27.292929292929294
RDP,0.39,100,1.0,0.01803751803751801,2.525252525252525
BU_1,0.39,100,1.0,0.023809523809523767,3.3333333333333335
BU_2,0.39,100,1.0,0.038961038961038905,5.454545454545454
VW,0.39,100,1.0,0.0738095238095237,10.333333333333334
OS,0.4,100,1.0,0.1996392496392496,27.949494949494948
RDP,0.4,100,1.0,0.01789321789321786,2.505050505050505
BU_1,0.4,100,1.0,0.023448773448773406,3.282828282828283
BU_2,0.4,100,1.0,0.03823953823953819,5.353535353535354
VW,0.4,100,1.0,0.07337662337662328,10.272727272727273
OS,0.41000000000000003,100,1.0,0.2038961038961038,28.545454545454547
RDP,0.41000000000000003,100,1.0,0.01767676767676764,2.474747474747475
BU_1,0.41000000000000003,100,1.0,0.02258297258297254,3.1616161616161618
BU_2,0.41000000000000003,100,1.0,0.03650793650793646,5.111111111111111
VW,0.41000000000000003,100,1.0,0.07301587301587292,10.222222222222221
OS,0.42,100,1.0,0.2065656565656566,28.91919191919192
RDP,0.42,100,1.0,0.017460317460317426,2.4444444444444446
BU_1,0.42,100,1.0,0.022294372294372256,3.121212121212121
BU_2,0.42,100,1.0,0.03593073593073589,5.03030303030303
VW,0.42,100,1.0,0.07236652236652227,10.131313131313131
OS,0.43,100,1.0,0.21161616161616156,29.626262626262626
RDP,0.43,100,1.0,0.017388167388167355,2.4343434343434343
BU_1,0.43,100,1.0,0.021933621933621895,3.0707070707070705
BU_2,0.43,100,1.0,0.03520923520923517,4.929292929292929
VW,0.43,100,1.0,0.07207792207792198,10.090909090909092
OS,0.44,100,1.0,0.2175324675324674,30.454545454545453
RDP,0.44,100,1.0,0.017316017316017285,2.4242424242424243
BU_1,0.44,100,1.0,0.021572871572871535,3.0202020202020203
BU_2,0.44,100,1.0,0.03448773448773445,4.828282828282828
VW,0.44,100,1.0,0.07157287157287148,10.02020202020202
OS,0.45,100,1.0,0.22287157287157278,31.2020202020202
RDP,0.45,100,1.0,0.017316017316017285,2.4242424242424243
BU_1,0.45,100,1.0,0.021428571428571394,3.0
BU_2,0.45,100,1.0,0.03419913419913416,4.787878787878788
VW,0.45,100,1.0,0.07128427128427119,9.97979797979798
OS,0.46,100,1.0,0.2280663780663779,31.92929292929293
RDP,0.46,100,1.0,0.01724386724386721,2.414141414141414
BU_1,0.46,100,1.0,0.02099567099567096,2.9393939393939394
BU_2,0.46,100,1.0,0.0333333333333333,4.666666666666667
VW,0.46,100,1.0,0.07092352092352083,9.929292929292929
OS,0.47000000000000003,100,1.0,0.23304473304473292,32.62626262626262
RDP,0.47000000000000003,100,1.0,0.01724386724386721,2.414141414141414
BU_1,0.47000000000000003,100,1.0,0.02085137085137082,2.919191919191919
BU_2,0.47000000000000003,100,1.0,0.03304473304473301,4.626262626262626
VW,0.47000000000000003,100,1.0,0.07034632034632025,9.848484848484848
OS,0.48,100,1.0,0.2386724386724386,33.41414141414141
RDP,0.48,100,1.0,0.01724386724386721,2.414141414141414
BU_1,0.48,100,1.0,0.02056277056277053,2.878787878787879
BU_2,0.48,100,1.0,0.03246753246753243,4.545454545454546
VW,0.48,100,1.0,0.07012987012987004,9.818181818181818
OS,0.49,100,1.0,0.24372294372294362,34.121212121212125
RDP,0.49,100,1.0,0.01724386724386721,2.414141414141414
BU_1,0.49,100,1.0,0.020418470418470388,2.8585858585858586
BU_2,0.49,100,1.0,0.03217893217893215,4.505050505050505
VW,0.49,100,1.0,0.06948051948051939,9.727272727272727
OS,0.5,100,1.0,0.2507936507936507,35.111111111111114
RDP,0.5,100,1.0,0.01724386724386721,2.414141414141414
BU_1,0.5,100,1.0,0.020346320346320314,2.8484848484848486
BU_2,0.5,100,1.0,0.032034632034632,4.484848484848484
VW,0.5,100,1.0,0.06926406926406917,9.696969696969697
OS,0.51,100,1.0,0.25613275613275593,35.85858585858586
RDP,0.51,100,1.0,0.01724386724386721,2.414141414141414
BU_1,0.51,100,1.0,0.020346320346320314,2.8484848484848486
BU_2,0.51,100,1.0,0.032034632034632,4.484848484848484
VW,0.51,100,1.0,0.06875901875901866,9.626262626262626
OS,0.52,100,1.0,0.26226551226551226,36.717171717171716
RDP,0.52,100,1.0,0.01724386724386721,2.414141414141414
BU_1,0.52,100,1.0,0.020274170274170243,2.8383838383838382
BU_2,0.52,100,1.0,0.03189033189033186,4.4646464646464645
VW,0.52,100,1.0,0.06810966810966801,9.535353535353535
OS,0.53,100,1.0,0.2707792207792208,37.90909090909091
RDP,0.53,100,1.0,0.01724386724386721,2.414141414141414
BU_1,0.53,100,1.0,0.020274170274170243,2.8383838383838382
BU_2,0.53,100,1.0,0.03189033189033186,4.4646464646464645
VW,0.53,100,1.0,0.06782106782106773,9.494949494949495
OS,0.54,100,1.0,0.2791486291486293,39.08080808080808
RDP,0.54,100,1.0,0.01724386724386721,2.414141414141414
BU_1,0.54,100,1.0,0.020274170274170243,2.8383838383838382
BU_2,0.54,100,1.0,0.03189033189033186,4.4646464646464645
VW,0.54,100,1.0,0.06724386724386715,9.414141414141413
OS,0.55,100,1.0,0.2875901875901877,40.26262626262626
RDP,0.55,100,1.0,0.01724386724386721,2.414141414141414
BU_1,0.55,100,1.0,0.020129870129870095,2.8181818181818183
BU_2,0.55,100,1.0,0.03160173160173157,4.424242424242424
VW,0.55,100,1.0,0.0668831168831168,9.363636363636363
OS,0.56,100,1.0,0.2985569985569987,41.7979797979798
RDP,0.56,100,1.0,0.01724386724386721,2.414141414141414
BU_1,0.56,100,1.0,0.019985569985569954,2.797979797979798
BU_2,0.56,100,1.0,0.031313131313131286,4.383838383838384
VW,0.56,100,1.0,0.06645021645021636,9.303030303030303
OS,0.5700000000000001,100,1.0,0.3072150072150072,43.01010101010101
RDP,0.5700000000000001,100,1.0,0.01724386724386721,2.414141414141414
BU_1,0.5700000000000001,100,1.0,0.01991341991341988,2.787878787878788
BU_2,0.5700000000000001,100,1.0,0.031168831168831138,4.363636363636363
VW,0.5700000000000001,100,1.0,0.06601731601731593,9.242424242424242
OS,0.58,100,1.0,0.3164502164502165,44.303030303030305
RDP,0.58,100,1.0,0.01724386724386721,2.414141414141414
BU_1,0.58,100,1.0,0.019696969696969664,2.757575757575758
BU_2,0.58,100,1.0,0.030735930735930707,4.303030303030303
VW,0.58,100,1.0,0.06565656565656557,9.191919191919192
OS,0.59,100,1.0,0.32575757575757586,45.60606060606061
RDP,0.59,100,1.0,0.01724386724386721,2.414141414141414
BU_1,0.59,100,1.0,0.01962481962481959,2.7474747474747474
BU_2,0.59,100,1.0,0.030591630591630562,4.282828282828283
VW,0.59,100,1.0,0.06536796536796528,9.151515151515152
OS,0.6,100,1.0,0.3352813852813855,46.93939393939394
RDP,0.6,100,1.0,0.01717171717171714,2.404040404040404
BU_1,0.6,100,1.0,0.01955266955266952,2.7373737373737375
BU_2,0.6,100,1.0,0.03044733044733042,4.262626262626263
VW,0.6,100,1.0,0.06515151515151506,9.121212121212121
OS,0.61,100,1.0,0.34538239538239546,48.35353535353536
RDP,0.61,100,1.0,0.01709956709956707,2.393939393939394
BU_1,0.61,100,1.0,0.01948051948051945,2.727272727272727
BU_2,0.61,100,1.0,0.030303030303030276,4.242424242424242
VW,0.61,100,1.0,0.06435786435786428,9.01010101010101
OS,0.62,100,1.0,0.3582251082251082,50.15151515151515
RDP,0.62,100,1.0,0.01709956709956707,2.393939393939394
BU_1,0.62,100,1.0,0.019336219336219304,2.707070707070707
BU_2,0.62,100,1.0,0.03001443001442999,4.202020202020202
VW,0.62,100,1.0,0.06421356421356414,8.98989898989899
OS,0.63,100,1.0,0.3688311688311689,51.63636363636363
RDP,0.63,100,1.0,0.01709956709956707,2.393939393939394
BU_1,0.63,100,1.0,0.019336219336219304,2.707070707070707
BU_2,0.63,100,1.0,0.03001443001442999,4.202020202020202
VW,0.63,100,1.0,0.06385281385281377,8.93939393939394
OS,0.64,100,1.0,0.3808802308802309,53.323232323232325
RDP,0.64,100,1.0,0.01709956709956707,2.393939393939394
BU_1,0.64,100,1.0,0.019191919191919163,2.686868686868687
BU_2,0.64,100,1.0,0.0297258297258297,4.161616161616162
VW,0.64,100,1.0,0.06363636363636356,8.909090909090908
OS,0.65,100,1.0,0.3933621933621936,55.07070707070707
RDP,0.65,100,1.0,0.01709956709956707,2.393939393939394
BU_1,0.65,100,1.0,0.019191919191919163,2.686868686868687
BU_2,0.65,100,1.0,0.0297258297258297,4.161616161616162
VW,0.65,100,1.0,0.062049062049061965,8.686868686868687
OS,0.66,100,1.0,0.408080808080808,57.13131313131313
RDP,0.66,100,1.0,0.01709956709956707,2.393939393939394
BU_1,0.66,100,1.0,0.01911976911976909,2.676767676767677
BU_2,0.66,100,1.0,0.029581529581529556,4.141414141414141
VW,0.66,100,1.0,0.06154401154401145,8.616161616161616
OS,0.67,100,1.0,0.4214285714285714,59.0
RDP,0.67,100,1.0,0.01709956709956707,2.393939393939394
BU_1,0.67,100,1.0,0.018975468975468947,2.6565656565656566
BU_2,0.67,100,1.0,0.02929292929292927,4.101010101010101
VW,0.67,100,1.0,0.06125541125541116,8.575757575757576
OS,0.68,100,1.0,0.43564213564213566,60.98989898989899
RDP,0.68,100,1.0,0.01709956709956707,2.393939393939394
BU_1,0.68,100,1.0,0.0188311688311688,2.6363636363636362
BU_2,0.68,100,1.0,0.029004329004328977,4.0606060606060606
VW,0.68,100,1.0,0.06067821067821059,8.494949494949495
OS,0.6900000000000001,100,1.0,0.4487734487734487,62.82828282828283
RDP,0.6900000000000001,100,1.0,0.01709956709956707,2.393939393939394
BU_1,0.6900000000000001,100,1.0,0.018759018759018732,2.6262626262626263
BU_2,0.6900000000000001,100,1.0,0.028860028860028832,4.040404040404041
VW,0.6900000000000001,100,1.0,0.06024531024531016,8.434343434343434
OS,0.7000000000000001,100,1.0,0.4645743145743145,65.04040404040404
RDP,0.7000000000000001,100,1.0,0.01709956709956707,2.393939393939394
BU_1,0.7000000000000001,100,1.0,0.018759018759018732,2.6262626262626263
BU_2,0.7000000000000001,100,1.0,0.028860028860028832,4.040404040404041
VW,0.7000000000000001,100,1.0,0.05988455988455979,8.383838383838384
OS,0.71,100,1.0,0.4824675324675324,67.54545454545455
RDP,0.71,98,0.0,0.017027417027417,2.3838383838383836
BU_1,0.71,100,1.0,0.018542568542568513,2.595959595959596
BU_2,0.71,100,1.0,0.0284271284271284,3.9797979797979797
VW,0.71,100,1.0,0.05945165945165937,8.323232323232324
OS,0.72,100,1.0,0.4970418470418468,69.58585858585859
RDP,0.72,98,0.0,0.017027417027417,2.3838383838383836
BU_1,0.72,100,1.0,0.018253968253968224,2.5555555555555554
BU_2,0.72,100,1.0,0.027849927849927823,3.898989898989899
VW,0.72,100,1.0,0.059090909090909007,8.272727272727273
OS,0.73,100,1.0,0.5095238095238096,71.33333333333333
RDP,0.73,98,0.0,0.017027417027417,2.3838383838383836
BU_1,0.73,100,1.0,0.018253968253968224,2.5555555555555554
BU_2,0.73,100,1.0,0.027849927849927823,3.898989898989899
VW,0.73,100,1.0,0.05880230880230872,8.232323232323232
OS,0.74,100,1.0,0.5239538239538242,73.35353535353535
RDP,0.74,98,0.0,0.017027417027417,2.3838383838383836
BU_1,0.74,100,1.0,0.018253968253968224,2.5555555555555554
BU_2,0.74,100,1.0,0.027849927849927823,3.898989898989899
VW,0.74,100,1.0,0.058730158730158646,8.222222222222221
OS,0.75,100,1.0,0.5405483405483403,75.67676767676768
RDP,0.75,96,0.0,0.016883116883116854,2.3636363636363638
BU_1,0.75,100,1.0,0.018253968253968224,2.5555555555555554
BU_2,0.75,100,1.0,0.027849927849927823,3.898989898989899
VW,0.75,100,1.0,0.058225108225108145,8.151515151515152
OS,0.76,100,1.0,0.5570707070707069,77.98989898989899
RDP,0.76,94,0.0,0.01673881673881671,2.3434343434343434
BU_1,0.76,100,1.0,0.018253968253968224,2.5555555555555554
BU_2,0.76,100,1.0,0.027849927849927823,3.898989898989899
VW,0.76,100,1.0,0.05793650793650784,8.11111111111111
OS,0.77,100,1.0,0.5758297258297257,80.61616161616162
RDP,0.77,92,0.0,0.016594516594516565,2.323232323232323
BU_1,0.77,100,1.0,0.018109668109668083,2.5353535353535355
BU_2,0.77,100,1.0,0.027561327561327537,3.8585858585858586
VW,0.77,100,1.0,0.057503607503607404,8.05050505050505
OS,0.78,100,1.0,0.595093795093795,83.31313131313131
RDP,0.78,90,0.0,0.01645021645021642,2.303030303030303
BU_1,0.78,100,1.0,0.01796536796536794,2.515151515151515
BU_2,0.78,100,1.0,0.027272727272727247,3.8181818181818183
VW,0.78,100,1.0,0.05721500721500712,8.01010101010101
OS,0.79,100,1.0,0.6127705627705629,85.78787878787878
RDP,0.79,78,0.0,0.015584415584415557,2.1818181818181817
BU_1,0.79,100,1.0,0.017821067821067793,2.494949494949495
BU_2,0.79,100,1.0,0.026984126984126954,3.7777777777777777
VW,0.79,100,1.0,0.05685425685425676,7.959595959595959
OS,0.8,100,1.0,0.6316738816738818,88.43434343434343
RDP,0.8,68,0.0,0.01486291486291484,2.080808080808081
BU_1,0.8,100,1.0,0.017821067821067793,2.494949494949495
BU_2,0.8,100,1.0,0.026984126984126954,3.7777777777777777
VW,0.8,100,1.0,0.056277056277056176,7.878787878787879
OS,0.81,100,1.0,0.6482683982683984,90.75757575757575
RDP,0.81,59,0.0,0.014213564213564192,1.9898989898989898
BU_1,0.81,100,1.0,0.017748917748917722,2.484848484848485
BU_2,0.81,100,1.0,0.026839826839826813,3.757575757575758
VW,0.81,100,1.0,0.05584415584415575,7.818181818181818
OS,0.8200000000000001,100,1.0,0.6676046176046178,93.46464646464646
RDP,0.8200000000000001,50,0.0,0.013564213564213548,1.898989898989899
BU_1,0.8200000000000001,100,1.0,0.01767676767676765,2.474747474747475
BU_2,0.8200000000000001,100,1.0,0.026695526695526668,3.7373737373737375
VW,0.8200000000000001,100,1.0,0.05526695526695518,7.737373737373737
OS,0.8300000000000001,100,1.0,0.685930735930736,96.03030303030303
RDP,0.8300000000000001,48,0.0,0.013419913419913403,1.878787878787879
BU_1,0.8300000000000001,100,1.0,0.017604617604617578,2.4646464646464645
BU_2,0.8300000000000001,100,1.0,0.026551226551226523,3.717171717171717
VW,0.8300000000000001,100,1.0,0.05505050505050496,7.707070707070707
OS,0.84,100,1.0,0.7053391053391053,98.74747474747475
RDP,0.84,45,0.0,0.013203463203463188,1.8484848484848484
BU_1,0.84,100,1.0,0.017604617604617578,2.4646464646464645
BU_2,0.84,100,1.0,0.026551226551226523,3.717171717171717
VW,0.84,100,1.0,0.05411255411255403,7.575757575757576
OS,0.85,100,1.0,0.725396825396825,101.55555555555556
RDP,0.85,43,0.0,0.013059163059163045,1.8282828282828283
BU_1,0.85,100,1.0,0.017532467532467507,2.4545454545454546
BU_2,0.85,100,1.0,0.026406926406926375,3.696969696969697
VW,0.85,100,1.0,0.05396825396825389,7.555555555555555
OS,0.86,100,1.0,0.7435064935064936,104.0909090909091
RDP,0.86,42,0.0,0.0129148629148629,1.8080808080808082
BU_1,0.86,100,1.0,0.017532467532467507,2.4545454545454546
BU_2,0.86,100,1.0,0.026406926406926375,3.696969696969697
VW,0.86,100,1.0,0.05382395382395374,7.5353535353535355
OS,0.87,100,1.0,0.7678210678210682,107.4949494949495
RDP,0.87,41,0.0,0.01284271284271283,1.797979797979798
BU_1,0.87,100,1.0,0.017460317460317433,2.4444444444444446
BU_2,0.87,100,1.0,0.02626262626262623,3.676767676767677
VW,0.87,100,1.0,0.05375180375180367,7.525252525252525
OS,0.88,100,1.0,0.7860028860028859,110.04040404040404
RDP,0.88,41,0.0,0.01284271284271283,1.797979797979798
BU_1,0.88,100,1.0,0.017243867243867218,2.414141414141414
BU_2,0.88,100,1.0,0.025829725829725807,3.6161616161616164
VW,0.88,100,1.0,0.05303030303030295,7.424242424242424
OS,0.89,100,1.0,0.8049783549783557,112.6969696969697
RDP,0.89,41,0.0,0.01284271284271283,1.797979797979798
BU_1,0.89,100,1.0,0.017027417027417002,2.3838383838383836
BU_2,0.89,100,1.0,0.025396825396825366,3.5555555555555554
VW,0.89,100,1.0,0.05274170274170265,7.383838383838384
OS,0.9,100,1.0,0.8225108225108224,115.15151515151516
RDP,0.9,41,0.0,0.01284271284271283,1.797979797979798
BU_1,0.9,100,1.0,0.016883116883116854,2.3636363636363638
BU_2,0.9,100,1.0,0.025108225108225076,3.515151515151515
VW,0.9,100,1.0,0.05245310245310236,7.343434343434343
OS,0.91,100,1.0,0.8396103896103896,117.54545454545455
RDP,0.91,41,0.0,0.012770562770562757,1.7878787878787878
BU_1,0.91,100,1.0,0.016810966810966783,2.3535353535353534
BU_2,0.91,100,1.0,0.024963924963924935,3.494949494949495
VW,0.91,100,1.0,0.05238095238095229,7.333333333333333
OS,0.92,100,1.0,0.8585858585858586,120.20202020202021
RDP,0.92,41,0.0,0.012770562770562757,1.7878787878787878
BU_1,0.92,100,1.0,0.016810966810966783,2.3535353535353534
BU_2,0.92,100,1.0,0.024963924963924935,3.494949494949495
VW,0.92,100,1.0,0.052092352092352,7.292929292929293
OS,0.93,100,1.0,0.8787157287157289,123.02020202020202
RDP,0.93,41,0.0,0.012770562770562757,1.7878787878787878
BU_1,0.93,100,1.0,0.016810966810966783,2.3535353535353534
BU_2,0.93,100,1.0,0.024963924963924935,3.494949494949495
VW,0.93,100,1.0,0.052092352092352,7.292929292929293
OS,0.9400000000000001,100,1.0,0.8945165945165948,125.23232323232324
RDP,0.9400000000000001,41,0.0,0.012770562770562757,1.7878787878787878
BU_1,0.9400000000000001,100,1.0,0.01673881673881671,2.3434343434343434
BU_2,0.9400000000000001,100,1.0,0.02481962481962479,3.474747474747475
VW,0.9400000000000001,100,1.0,0.05180375180375172,7.252525252525253
OS,0.9500000000000001,100,1.0,0.9135642135642135,127.8989898989899
RDP,0.9500000000000001,41,0.0,0.012770562770562757,1.7878787878787878
BU_1,0.9500000000000001,100,1.0,0.016522366522366494,2.313131313131313
BU_2,0.9500000000000001,100,1.0,0.024386724386724352,3.414141414141414
VW,0.9500000000000001,100,1.0,0.0515873015873015,7.222222222222222
OS,0.96,100,1.0,0.9326839826839824,130.57575757575756
RDP,0.96,41,0.0,0.012770562770562757,1.7878787878787878
BU_1,0.96,100,1.0,0.016522366522366494,2.313131313131313
BU_2,0.96,100,1.0,0.024386724386724352,3.414141414141414
VW,0.96,100,1.0,0.050937950937950845,7.1313131313131315
OS,0.97,100,1.0,0.9488455988455988,132.83838383838383
RDP,0.97,41,0.0,0.012770562770562757,1.7878787878787878
BU_1,0.97,100,1.0,0.01645021645021642,2.303030303030303
BU_2,0.97,100,1.0,0.02424242424242421,3.393939393939394
VW,0.97,100,1.0,0.05072150072150063,7.101010101010101
OS,0.98,100,1.0,0.9658008658008657,135.21212121212122
RDP,0.98,41,0.0,0.012770562770562757,1.7878787878787878
BU_1,0.98,100,1.0,0.01645021645021642,2.303030303030303
BU_2,0.98,100,1.0,0.02424242424242421,3.393939393939394
VW,0.98,100,1.0,0.05064935064935056,7.090909090909091
OS,0.99,100,1.0,0.9830447330447326,137.62626262626262
RDP,0.99,41,0.0,0.012770562770562757,1.7878787878787878
BU_1,0.99,100,1.0,0.01645021645021642,2.303030303030303
BU_2,0.99,100,1.0,0.02424242424242421,3.393939393939394
VW,0.99,100,1.0,0.05043290043290034,7.0606060606060606
